    #Energy        TDOS
    #TDOS obtained from EIGENVAL file
   -14.67731     1.63592
   -14.66732     1.58235
   -14.65732     1.53287
   -14.64733     1.48748
   -14.63733     1.44617
   -14.62734     1.40869
   -14.61734     1.37249
   -14.60735     1.32727
   -14.59735     1.28034
   -14.58736     1.23490
   -14.57736     1.19092
   -14.56737     1.14843
   -14.55737     1.10741
   -14.54738     1.06786
   -14.53738     1.02979
   -14.52739     0.99319
   -14.51739     0.95901
   -14.50740     0.94363
   -14.49740     1.02030
   -14.48741     1.31870
   -14.47741     1.98179
   -14.46742     2.51790
   -14.45742     3.35267
   -14.44743     4.41962
   -14.43743     5.08842
   -14.42744     5.80587
   -14.41744     6.45802
   -14.40745     7.03318
   -14.39745     7.52775
   -14.38746     7.89070
   -14.37746     8.15899
   -14.36747     8.42626
   -14.35747     8.55620
   -14.34748     9.35633
   -14.33748     6.74995
   -14.32749     6.79121
   -14.31749     6.69019
   -14.30750     6.52638
   -14.29750     6.46154
   -14.28751     6.58536
   -14.27751     6.64975
   -14.26752     6.69187
   -14.25752     6.70990
   -14.24753     6.70383
   -14.23753     6.67693
   -14.22754     6.57112
   -14.21754     6.35878
   -14.20755     6.33828
   -14.19755     6.55354
   -14.18756     6.64173
   -14.17756     6.61110
   -14.16757     6.41110
   -14.15757     6.06266
   -14.14758     5.77515
   -14.13758     5.82538
   -14.12759     6.08197
   -14.11759     6.45308
   -14.10760     8.60121
   -14.09760    11.43623
   -14.08761    10.38397
   -14.07761     9.15715
   -14.06762    10.40142
   -14.05762    10.55145
   -14.04763     9.02487
   -14.03763     9.61241
   -14.02764    10.24590
   -14.01764    11.30408
   -14.00765    12.99449
   -13.99765    14.89211
   -13.98766    13.89664
   -13.97766    13.84096
   -13.96767    11.56358
   -13.95767    11.40831
   -13.94768    11.40244
   -13.93768    11.56981
   -13.92769    11.64683
   -13.91769    11.63503
   -13.90770    12.02700
   -13.89770    15.66351
   -13.88771    19.84804
   -13.87771    19.58061
   -13.86772    18.32796
   -13.85772    16.16378
   -13.84773    14.64081
   -13.83773    12.19065
   -13.82774    10.83416
   -13.81774    10.23098
   -13.80775    10.65894
   -13.79775     9.41432
   -13.78776     9.72891
   -13.77776    10.11397
   -13.76777    11.00748
   -13.75777    12.35511
   -13.74778    11.53946
   -13.73778    15.02249
   -13.72779    16.92942
   -13.71779    16.50847
   -13.70780    14.40770
   -13.69780    12.60268
   -13.68781    10.88450
   -13.67781     9.52034
   -13.66782     8.71940
   -13.65782     8.74760
   -13.64783     9.91961
   -13.63783    11.15830
   -13.62784    12.45956
   -13.61784    13.90159
   -13.60785    13.75735
   -13.59785    12.53341
   -13.58786    19.74602
   -13.57786    28.55076
   -13.56787    33.73726
   -13.55787    30.22531
   -13.54788    27.80621
   -13.53788    26.08062
   -13.52789    28.69791
   -13.51789    27.57194
   -13.50790    29.87331
   -13.49790    23.30691
   -13.48791    14.49344
   -13.47791    12.77811
   -13.46792    10.17459
   -13.45792     7.53574
   -13.44793     4.45964
   -13.43793     1.51525
   -13.42794     0.15421
   -13.41794     0.00000
   -13.40795     0.00000
   -13.39795     0.00000
   -13.38796     0.00000
   -13.37796     0.00000
   -13.36797     0.00000
   -13.35797     0.00000
   -13.34798     0.00000
   -13.33798     0.00000
   -13.32799     0.00000
   -13.31799     0.00000
   -13.30800     0.00000
   -13.29800     0.00000
   -13.28801     0.00000
   -13.27801     0.00000
   -13.26802     0.00000
   -13.25802     0.00000
   -13.24803     0.00000
   -13.23803     0.00000
   -13.22804     0.00000
   -13.21804     0.00000
   -13.20805     0.00000
   -13.19805     0.00000
   -13.18806     0.00000
   -13.17806     0.00000
   -13.16807     0.00000
   -13.15807     0.00000
   -13.14808     0.00000
   -13.13808     0.00000
   -13.12809     0.00000
   -13.11809     0.00000
   -13.10810     0.00000
   -13.09810     0.00000
   -13.08811     0.00000
   -13.07811     0.00000
   -13.06812     0.00000
   -13.05812     0.00000
   -13.04813     0.00000
   -13.03813     0.00000
   -13.02814     0.00000
   -13.01814     0.00000
   -13.00815     0.00000
   -12.99815     0.00000
   -12.98816     0.00000
   -12.97816     0.00000
   -12.96817     0.00000
   -12.95817     0.00000
   -12.94818     0.00000
   -12.93818     0.00000
   -12.92819     0.00000
   -12.91819     0.00000
   -12.90820     0.00000
   -12.89820     0.00000
   -12.88821     0.00000
   -12.87821     0.00000
   -12.86822     0.00000
   -12.85822     0.00000
   -12.84823     0.00000
   -12.83823     0.00000
   -12.82824     0.00000
   -12.81824     0.00000
   -12.80825     0.00000
   -12.79825     0.00000
   -12.78826     0.00000
   -12.77826     0.00000
   -12.76827     0.00000
   -12.75827     0.00000
   -12.74828     0.00000
   -12.73828     0.00000
   -12.72829     0.00000
   -12.71829     0.00000
   -12.70830     0.00000
   -12.69830     0.00000
   -12.68831     0.00000
   -12.67831     0.00000
   -12.66832     0.00000
   -12.65832     0.00000
   -12.64833     0.00000
   -12.63833     0.00000
   -12.62834     0.00000
   -12.61834     0.00000
   -12.60835     0.00000
   -12.59835     0.00000
   -12.58836     0.00000
   -12.57836     0.00000
   -12.56837     0.00000
   -12.55837     0.00000
   -12.54838     0.00000
   -12.53838     0.00000
   -12.52839     0.00000
   -12.51839     0.00000
   -12.50840     0.00000
   -12.49840     0.00000
   -12.48841     0.00000
   -12.47841     0.00000
   -12.46842     0.00000
   -12.45842     0.00000
   -12.44843     0.00000
   -12.43843     0.00000
   -12.42844     0.00000
   -12.41844     0.00000
   -12.40845     0.00000
   -12.39845     0.00000
   -12.38846     0.00000
   -12.37846     0.00000
   -12.36847     0.00000
   -12.35847     0.00000
   -12.34848     0.00000
   -12.33848     0.00000
   -12.32849     0.00000
   -12.31849     0.00000
   -12.30850     0.00000
   -12.29850     0.00000
   -12.28851     0.00000
   -12.27851     0.00000
   -12.26852     0.00000
   -12.25852     0.00000
   -12.24853     0.00000
   -12.23853     0.00000
   -12.22854     0.00000
   -12.21854     0.00000
   -12.20855     0.00000
   -12.19855     0.00000
   -12.18856     0.00000
   -12.17856     0.00000
   -12.16857     0.00000
   -12.15857     0.00000
   -12.14858     0.00000
   -12.13858     0.00000
   -12.12859     0.00000
   -12.11859     0.00000
   -12.10860     0.00000
   -12.09860     0.00000
   -12.08861     0.00000
   -12.07861     0.00000
   -12.06862     0.00000
   -12.05862     0.00000
   -12.04863     0.00000
   -12.03863     0.00000
   -12.02864     0.00000
   -12.01864     0.00000
   -12.00865     0.00000
   -11.99865     0.00000
   -11.98866     0.00000
   -11.97866     0.00000
   -11.96867     0.00000
   -11.95867     0.00000
   -11.94868     0.00000
   -11.93868     0.00000
   -11.92869     0.00000
   -11.91869     0.00000
   -11.90870     0.00000
   -11.89870     0.00000
   -11.88871     0.00000
   -11.87871     0.00000
   -11.86872     0.00000
   -11.85872     0.00000
   -11.84873     0.00000
   -11.83873     0.00000
   -11.82874     0.00000
   -11.81874     0.00000
   -11.80875     0.00000
   -11.79875     0.00000
   -11.78876     0.00000
   -11.77876     0.00000
   -11.76877     0.00000
   -11.75877     0.00000
   -11.74878     0.00000
   -11.73878     0.00000
   -11.72879     0.00000
   -11.71879     0.00000
   -11.70880     0.00000
   -11.69880     0.00000
   -11.68881     0.00000
   -11.67881     0.00000
   -11.66882     0.00000
   -11.65882     0.00000
   -11.64883     0.00000
   -11.63883     0.00000
   -11.62884     0.00000
   -11.61884     0.00000
   -11.60885     0.00000
   -11.59885     0.00000
   -11.58886     0.00000
   -11.57886     0.00000
   -11.56887     0.00000
   -11.55887     0.00000
   -11.54888     0.00000
   -11.53888     0.00000
   -11.52889     0.00000
   -11.51889     0.00000
   -11.50890     0.00000
   -11.49890     0.00000
   -11.48891     0.00000
   -11.47891     0.00000
   -11.46892     0.00000
   -11.45892     0.00000
   -11.44893     0.00000
   -11.43893     0.00000
   -11.42894     0.00000
   -11.41894     0.00000
   -11.40895     0.00000
   -11.39895     0.00000
   -11.38896     0.00000
   -11.37896     0.00000
   -11.36897     0.00000
   -11.35897     0.00000
   -11.34898     0.00000
   -11.33898     0.00000
   -11.32899     0.00000
   -11.31899     0.00000
   -11.30900     0.00000
   -11.29900     0.00000
   -11.28901     0.00000
   -11.27901     0.00000
   -11.26902     0.00000
   -11.25902     0.00000
   -11.24903     0.00000
   -11.23903     0.00000
   -11.22904     0.00000
   -11.21904     0.00000
   -11.20905     0.00000
   -11.19905     0.00000
   -11.18906     0.00000
   -11.17906     0.00000
   -11.16907     0.00000
   -11.15907     0.00000
   -11.14908     0.00000
   -11.13908     0.00000
   -11.12909     0.00000
   -11.11909     0.00000
   -11.10910     0.00000
   -11.09910     0.00000
   -11.08911     0.00000
   -11.07911     0.00000
   -11.06912     0.00000
   -11.05912     0.00000
   -11.04913     0.00000
   -11.03913     0.00000
   -11.02914     0.00000
   -11.01914     0.00000
   -11.00915     0.00000
   -10.99915     0.00000
   -10.98916     0.00000
   -10.97916     0.00000
   -10.96917     0.00000
   -10.95917     0.00000
   -10.94918     0.00000
   -10.93918     0.00000
   -10.92919     0.00000
   -10.91919     0.00000
   -10.90920     0.00000
   -10.89920     0.00000
   -10.88921     0.00000
   -10.87921     0.00000
   -10.86922     0.00000
   -10.85922     0.00000
   -10.84923     0.00000
   -10.83923     0.00000
   -10.82924     0.00000
   -10.81924     0.00000
   -10.80925     0.00000
   -10.79925     0.00000
   -10.78926     0.00000
   -10.77926     0.00000
   -10.76927     0.00000
   -10.75927     0.00000
   -10.74928     0.00000
   -10.73928     0.00000
   -10.72929     0.00000
   -10.71929     0.00000
   -10.70930     0.00000
   -10.69930     0.00000
   -10.68931     0.00000
   -10.67931     0.00000
   -10.66932     0.00000
   -10.65932     0.00000
   -10.64933     0.00000
   -10.63933     0.00000
   -10.62934     0.00000
   -10.61934     0.00000
   -10.60935     0.00000
   -10.59935     0.00000
   -10.58936     0.00000
   -10.57936     0.00000
   -10.56937     0.00000
   -10.55937     0.00000
   -10.54938     0.00000
   -10.53938     0.00000
   -10.52939     0.00000
   -10.51939     0.00000
   -10.50940     0.00000
   -10.49940     0.00000
   -10.48941     0.00000
   -10.47941     0.00000
   -10.46942     0.00000
   -10.45942     0.00000
   -10.44943     0.00000
   -10.43943     0.00000
   -10.42944     0.00000
   -10.41944     0.00000
   -10.40945     0.00000
   -10.39945     0.00000
   -10.38946     0.00000
   -10.37946     0.00000
   -10.36947     0.00000
   -10.35947     0.00000
   -10.34948     0.00000
   -10.33948     0.00000
   -10.32949     0.00000
   -10.31949     0.00000
   -10.30950     0.00000
   -10.29950     0.00000
   -10.28951     0.00000
   -10.27951     0.00000
   -10.26952     0.00000
   -10.25952     0.00000
   -10.24953     0.00000
   -10.23953     0.00000
   -10.22954     0.00000
   -10.21954     0.00000
   -10.20955     0.00000
   -10.19955     0.00000
   -10.18956     0.00000
   -10.17956     0.00000
   -10.16957     0.00000
   -10.15957     0.00000
   -10.14958     0.00000
   -10.13958     0.00000
   -10.12959     0.00000
   -10.11959     0.00000
   -10.10960     0.00000
   -10.09960     0.00000
   -10.08961     0.00000
   -10.07961     0.00000
   -10.06962     0.00000
   -10.05962     0.00000
   -10.04963     0.00000
   -10.03963     0.00000
   -10.02964     0.00000
   -10.01964     0.00000
   -10.00965     0.00000
    -9.99965     0.00000
    -9.98966     0.00000
    -9.97966     0.00000
    -9.96967     0.00000
    -9.95967     0.00000
    -9.94968     0.00000
    -9.93968     0.00000
    -9.92969     0.00000
    -9.91969     0.00000
    -9.90970     0.00000
    -9.89970     0.00000
    -9.88971     0.00000
    -9.87971     0.00000
    -9.86972     0.00000
    -9.85972     0.00000
    -9.84973     0.00000
    -9.83973     0.00000
    -9.82974     0.00000
    -9.81974     0.00000
    -9.80975     0.00000
    -9.79975     0.00000
    -9.78976     0.00000
    -9.77976     0.00000
    -9.76977     0.00000
    -9.75977     0.00000
    -9.74978     0.00000
    -9.73978     0.00000
    -9.72979     0.00000
    -9.71979     0.00000
    -9.70980     0.00000
    -9.69980     0.00000
    -9.68981     0.00000
    -9.67981     0.00000
    -9.66982     0.00000
    -9.65982     0.00000
    -9.64983     0.00000
    -9.63983     0.00000
    -9.62984     0.00000
    -9.61984     0.00000
    -9.60985     0.00000
    -9.59985     0.00000
    -9.58986     0.00000
    -9.57986     0.00000
    -9.56987     0.00000
    -9.55987     0.00000
    -9.54988     0.00000
    -9.53988     0.00000
    -9.52989     0.00000
    -9.51989     0.00000
    -9.50990     0.00000
    -9.49990     0.00000
    -9.48991     0.00000
    -9.47991     0.00000
    -9.46992     0.00000
    -9.45992     0.00000
    -9.44993     0.00000
    -9.43993     0.00000
    -9.42994     0.00000
    -9.41994     0.00000
    -9.40995     0.00000
    -9.39995     0.00000
    -9.38996     0.00000
    -9.37996     0.00000
    -9.36997     0.00000
    -9.35997     0.00000
    -9.34998     0.00000
    -9.33998     0.00000
    -9.32999     0.00000
    -9.31999     0.00000
    -9.31000     0.00000
    -9.30000     0.00000
    -9.29001     0.00000
    -9.28001     0.00000
    -9.27002     0.00000
    -9.26002     0.00000
    -9.25003     0.00000
    -9.24003     0.00000
    -9.23004     0.00000
    -9.22004     0.00000
    -9.21005     0.00000
    -9.20005     0.00000
    -9.19006     0.00000
    -9.18006     0.00000
    -9.17007     0.00000
    -9.16007     0.00000
    -9.15008     0.00000
    -9.14008     0.00000
    -9.13009     0.00000
    -9.12009     0.00000
    -9.11010     0.00000
    -9.10010     0.00000
    -9.09011     0.00000
    -9.08011     0.00000
    -9.07012     0.00000
    -9.06012     0.00000
    -9.05013     0.00000
    -9.04013     0.00000
    -9.03014     0.00000
    -9.02014     0.00000
    -9.01015     0.00000
    -9.00015     0.00000
    -8.99016     0.00000
    -8.98016     0.00000
    -8.97017     0.00000
    -8.96017     0.00000
    -8.95018     0.00000
    -8.94018     0.00000
    -8.93019     0.00000
    -8.92019     0.00000
    -8.91020     0.00000
    -8.90020     0.00000
    -8.89021     0.00000
    -8.88021     0.00000
    -8.87022     0.00000
    -8.86022     0.00000
    -8.85023     0.00000
    -8.84023     0.00000
    -8.83024     0.00000
    -8.82024     0.00000
    -8.81025     0.00000
    -8.80025     0.00000
    -8.79026     0.00000
    -8.78026     0.00000
    -8.77027     0.00000
    -8.76027     0.00000
    -8.75028    31.47548
    -8.74028    56.87873
    -8.73029    42.52082
    -8.72029    39.05313
    -8.71030    36.22454
    -8.70030    33.65468
    -8.69031    30.00451
    -8.68031    25.06068
    -8.67032    21.06282
    -8.66032    16.12439
    -8.65033    12.30457
    -8.64033     9.54459
    -8.63034     7.64357
    -8.62034     6.82383
    -8.61035    16.99640
    -8.60035    27.50622
    -8.59036    63.66534
    -8.58036    70.23781
    -8.57037    46.36645
    -8.56037    65.58618
    -8.55038    75.76920
    -8.54038    42.84037
    -8.53039    17.68697
    -8.52039    30.93966
    -8.51040    84.74915
    -8.50040   103.77986
    -8.49041    93.61062
    -8.48041    72.16357
    -8.47042    47.63695
    -8.46042    53.38708
    -8.45043   100.56779
    -8.44043   296.50253
    -8.43044   137.83484
    -8.42044   210.32995
    -8.41045    89.24569
    -8.40045     0.00000
    -8.39046     0.00000
    -8.38046     0.00000
    -8.37047     0.00000
    -8.36047     0.00000
    -8.35048     0.00000
    -8.34048     0.00000
    -8.33049     0.00000
    -8.32049     0.00000
    -8.31050     0.00000
    -8.30050     0.00000
    -8.29051     0.00000
    -8.28051     0.00000
    -8.27052     0.00000
    -8.26052     0.00000
    -8.25053     0.00000
    -8.24053     0.00000
    -8.23054     0.00000
    -8.22054     0.00000
    -8.21055     0.00000
    -8.20055     0.00000
    -8.19056     0.00000
    -8.18056     0.00000
    -8.17057     0.00000
    -8.16057     0.00000
    -8.15058     0.00000
    -8.14058     0.00000
    -8.13059     0.00000
    -8.12059     0.00000
    -8.11060     0.00000
    -8.10060     0.00000
    -8.09061     0.00000
    -8.08061     0.00000
    -8.07062     0.00000
    -8.06062     0.00000
    -8.05063     0.00000
    -8.04063     0.00000
    -8.03064     0.00000
    -8.02064     0.00000
    -8.01065     0.00000
    -8.00065     0.00000
    -7.99066     0.00000
    -7.98066     0.00050
    -7.97067     0.00196
    -7.96067     0.00436
    -7.95068     0.00770
    -7.94068     0.01200
    -7.93069     0.01725
    -7.92069     0.02344
    -7.91070     0.03058
    -7.90070     0.03867
    -7.89071     0.04771
    -7.88071     0.05770
    -7.87072     0.06863
    -7.86072     0.08052
    -7.85073     0.09335
    -7.84073     0.10713
    -7.83074     0.12186
    -7.82074     0.13753
    -7.81075     0.15416
    -7.80075     0.17173
    -7.79076     0.19025
    -7.78076     0.20972
    -7.77077     0.23014
    -7.76077     0.25151
    -7.75078     0.27382
    -7.74078     0.30456
    -7.73079     0.32060
    -7.72079     0.33588
    -7.71080     0.35089
    -7.70080     0.36664
    -7.69081     0.38320
    -7.68081     0.40057
    -7.67082     0.41875
    -7.66082     0.43774
    -7.65083     0.45755
    -7.64083     0.47816
    -7.63084     0.49959
    -7.62084     0.52183
    -7.61085     0.54483
    -7.60085     0.56635
    -7.59086     0.58592
    -7.58086     0.61183
    -7.57087     0.63601
    -7.56087     0.65633
    -7.55088     0.67834
    -7.54088     0.70226
    -7.53089     0.72798
    -7.52089     0.74944
    -7.51090     0.76729
    -7.50090     0.78429
    -7.49091     0.80159
    -7.48091     0.82011
    -7.47092     0.84028
    -7.46092     0.86234
    -7.45093     0.88632
    -7.44093     0.91222
    -7.43094     0.94084
    -7.42094     0.97508
    -7.41095     1.02413
    -7.40095     1.08887
    -7.39096     1.16931
    -7.38096     1.26545
    -7.37097     1.37728
    -7.36097     1.50480
    -7.35098     1.64802
    -7.34098     1.80703
    -7.33099     1.98227
    -7.32099     2.17366
    -7.31100     2.30094
    -7.30100     2.34599
    -7.29101     2.50299
    -7.28101     2.61983
    -7.27102     2.71702
    -7.26102     2.80122
    -7.25103     2.88845
    -7.24103     2.98629
    -7.23104     3.09647
    -7.22104     3.21848
    -7.21105     3.33875
    -7.20105     3.48537
    -7.19106     3.65464
    -7.18106     3.69716
    -7.17107     3.67284
    -7.16107     3.86323
    -7.15108     3.99090
    -7.14108     4.14742
    -7.13109     4.33759
    -7.12109     4.56253
    -7.11110     4.82281
    -7.10110     5.11843
    -7.09111     5.44939
    -7.08111     5.81586
    -7.07112     6.22933
    -7.06112     6.69456
    -7.05113     7.18030
    -7.04113     7.46124
    -7.03114     7.48409
    -7.02114     7.39594
    -7.01115     7.33258
    -7.00115     7.18372
    -6.99116     6.96275
    -6.98116     6.71596
    -6.97117     6.56863
    -6.96117     6.52229
    -6.95118     6.48295
    -6.94118     6.43904
    -6.93119     6.42141
    -6.92119     6.45480
    -6.91120     6.47380
    -6.90120     6.34509
    -6.89121     6.34829
    -6.88121     6.35552
    -6.87122     6.28115
    -6.86122     6.28463
    -6.85123     6.37958
    -6.84123     6.42606
    -6.83124     6.55758
    -6.82124     6.60092
    -6.81125     6.66745
    -6.80125     6.78173
    -6.79126     6.90402
    -6.78126     7.01417
    -6.77127     7.12119
    -6.76127     7.17824
    -6.75128     7.18765
    -6.74128     7.32386
    -6.73129     7.47931
    -6.72129     7.68821
