      #Energy        TDOS
     -13.26959       1.01200
     -13.26559       1.01500
     -13.26159       1.01800
     -13.25759       1.02200
     -13.25359       1.02500
     -13.24959       1.02800
     -13.24559       1.03100
     -13.24159       1.03400
     -13.23759       1.03700
     -13.23359       1.04000
     -13.22959       1.04300
     -13.22559       1.04600
     -13.22159       1.04900
     -13.21759       1.05200
     -13.21359       1.05500
     -13.20959       1.05800
     -13.20559       1.06100
     -13.20159       1.06500
     -13.19759       1.06800
     -13.19359       1.07100
     -13.18959       1.07400
     -13.18559       1.07700
     -13.18159       1.08100
     -13.17759       1.08400
     -13.17359       1.08700
     -13.16959       1.09000
     -13.16559       1.10100
     -13.16159       1.10700
     -13.15759       1.11300
     -13.15359       1.11800
     -13.14959       1.12400
     -13.14559       1.12900
     -13.14159       1.13400
     -13.13759       1.13800
     -13.13359       1.14300
     -13.12959       1.14800
     -13.12559       1.15300
     -13.12159       1.15800
     -13.11759       1.16300
     -13.11359       1.16700
     -13.10959       1.17200
     -13.10559       1.17700
     -13.10159       1.18100
     -13.09759       1.18600
     -13.09359       1.19100
     -13.08959       1.19500
     -13.08559       1.20000
     -13.08159       1.20500
     -13.07759       1.20900
     -13.07359       1.21400
     -13.06959       1.21900
     -13.06559       1.22300
     -13.06159       1.22800
     -13.05759       1.23300
     -13.05359       1.23700
     -13.04959       1.24200
     -13.04559       1.24700
     -13.04159       1.25200
     -13.03759       1.25600
     -13.03359       1.26100
     -13.02959       1.26600
     -13.02559       1.27200
     -13.02159       1.28900
     -13.01759       1.30400
     -13.01359       1.31300
     -13.00959       1.32200
     -13.00559       1.33100
     -13.00159       1.34000
     -12.99759       1.35000
     -12.99359       1.35800
     -12.98959       1.36600
     -12.98559       1.37400
     -12.98159       1.38300
     -12.97759       1.39100
     -12.97359       1.39900
     -12.96959       1.40700
     -12.96559       1.41600
     -12.96159       1.42400
     -12.95759       1.43200
     -12.95359       1.44000
     -12.94959       1.44900
     -12.94559       1.45700
     -12.94159       1.46500
     -12.93759       1.47300
     -12.93359       1.48200
     -12.92959       1.49000
     -12.92559       1.49800
     -12.92159       1.50600
     -12.91759       1.51400
     -12.91359       1.52300
     -12.90959       1.53200
     -12.90559       1.54100
     -12.90159       1.54900
     -12.89759       1.55800
     -12.89359       1.56700
     -12.88959       1.57600
     -12.88559       1.61200
     -12.88159       1.63600
     -12.87759       1.66000
     -12.87359       1.67800
     -12.86959       1.69700
     -12.86559       1.71500
     -12.86159       1.73300
     -12.85759       1.75100
     -12.85359       1.77000
     -12.84959       1.78800
     -12.84559       1.80700
     -12.84159       1.82500
     -12.83759       1.84400
     -12.83359       1.86200
     -12.82959       1.88100
     -12.82559       1.90100
     -12.82159       1.92200
     -12.81759       1.94200
     -12.81359       1.96300
     -12.80959       1.98300
     -12.80559       2.00300
     -12.80159       2.02400
     -12.79759       2.04400
     -12.79359       2.06700
     -12.78959       2.09300
     -12.78559       2.12000
     -12.78159       2.14600
     -12.77759       2.17300
     -12.77359       2.19900
     -12.76959       2.22600
     -12.76559       2.25300
     -12.76159       2.35600
     -12.75759       2.42300
     -12.75359       2.49500
     -12.74959       2.56700
     -12.74559       2.63900
     -12.74159       2.71900
     -12.73759       2.80000
     -12.73359       2.88100
     -12.72959       2.98200
     -12.72559       3.09700
     -12.72159       3.21300
     -12.71759       3.32900
     -12.71359       3.60700
     -12.70959       3.90100
     -12.70559       4.19400
     -12.70159       5.62400
     -12.69759       4.82400
     -12.69359       4.02500
     -12.68959       3.33100
     -12.68559       3.58600
     -12.68159       3.84000
     -12.67759       2.80500
     -12.67359       2.97000
     -12.66959       3.06900
     -12.66559       3.09500
     -12.66159       3.22300
     -12.65759       3.49900
     -12.65359       3.99100
     -12.64959       3.95900
     -12.64559       3.75700
     -12.64159       3.66200
     -12.63759       3.69600
     -12.63359       3.73100
     -12.62959       3.72100
     -12.62559       3.65800
     -12.62159       3.56300
     -12.61759       3.26400
     -12.61359       3.28900
     -12.60959       3.32100
     -12.60559       3.35300
     -12.60159       3.38500
     -12.59759       3.41700
     -12.59359       3.40900
     -12.58959       3.38100
     -12.58559       3.34600
     -12.58159       3.43400
     -12.57759       3.38700
     -12.57359       3.30600
     -12.56959       3.27500
     -12.56559       3.25000
     -12.56159       3.22600
     -12.55759       3.20100
     -12.55359       3.17600
     -12.54959       3.15100
     -12.54559       3.11800
     -12.54159       3.04700
     -12.53759       3.05600
     -12.53359       3.07700
     -12.52959       3.11000
     -12.52559       3.31500
     -12.52159       3.20100
     -12.51759       3.08800
     -12.51359       2.97400
     -12.50959       2.89800
     -12.50559       2.94800
     -12.50159       2.99900
     -12.49759       2.16900
     -12.49359       1.38000
     -12.48959       1.39000
     -12.48559       1.39200
     -12.48159       1.38500
     -12.47759       1.38600
     -12.47359       1.38800
     -12.46959       1.42600
     -12.46559       1.64900
     -12.46159       2.05300
     -12.45759       2.36700
     -12.45359       2.45000
     -12.44959       2.27700
     -12.44559       2.33000
     -12.44159       2.38300
     -12.43759       2.43600
     -12.43359       2.48700
     -12.42959       2.50600
     -12.42559       2.49100
     -12.42159       2.45600
     -12.41759       2.44100
     -12.41359       2.44600
     -12.40959       2.46800
     -12.40559       2.49300
     -12.40159       2.51800
     -12.39759       2.54200
     -12.39359       2.56700
     -12.38959       2.59200
     -12.38559       2.59500
     -12.38159       2.59000
     -12.37759       2.58100
     -12.37359       2.59100
     -12.36959       2.60100
     -12.36559       2.61100
     -12.36159       2.62400
     -12.35759       2.64000
     -12.35359       2.66000
     -12.34959       2.67900
     -12.34559       2.69900
     -12.34159       2.72100
     -12.33759       2.74100
     -12.33359       2.76200
     -12.32959       2.77900
     -12.32559       2.78700
     -12.32159       2.78600
     -12.31759       2.79100
     -12.31359       2.80400
     -12.30959       2.82000
     -12.30559       2.83600
     -12.30159       2.85200
     -12.29759       2.86800
     -12.29359       2.88400
     -12.28959       2.90000
     -12.28559       2.91700
     -12.28159       2.93500
     -12.27759       2.95300
     -12.27359       2.97200
     -12.26959       2.99100
     -12.26559       3.02000
     -12.26159       3.04900
     -12.25759       3.06600
     -12.25359       3.07900
     -12.24959       3.09800
     -12.24559       3.11600
     -12.24159       3.13400
     -12.23759       3.15200
     -12.23359       3.17200
     -12.22959       3.19300
     -12.22559       3.21300
     -12.22159       3.23400
     -12.21759       3.25400
     -12.21359       3.27500
     -12.20959       3.29500
     -12.20559       3.31500
     -12.20159       3.33600
     -12.19759       3.35600
     -12.19359       3.37700
     -12.18959       3.42500
     -12.18559       3.46200
     -12.18159       3.49800
     -12.17759       3.52800
     -12.17359       3.55700
     -12.16959       3.58600
     -12.16559       3.61600
     -12.16159       3.64600
     -12.15759       3.67500
     -12.15359       3.70300
     -12.14959       3.73100
     -12.14559       3.76000
     -12.14159       3.78900
     -12.13759       3.81800
     -12.13359       3.84700
     -12.12959       3.87600
     -12.12559       3.90500
     -12.12159       3.93400
     -12.11759       3.98900
     -12.11359       4.06800
     -12.10959       4.12200
     -12.10559       4.17700
     -12.10159       4.22700
     -12.09759       4.27700
     -12.09359       4.33100
     -12.08959       4.38300
     -12.08559       4.43400
     -12.08159       4.48500
     -12.07759       4.53500
     -12.07359       4.58400
     -12.06959       4.63400
     -12.06559       4.68400
     -12.06159       4.73500
     -12.05759       4.78800
     -12.05359       4.84100
     -12.04959       4.98700
     -12.04559       5.11800
     -12.04159       5.22300
     -12.03759       5.32800
     -12.03359       5.43200
     -12.02959       5.53700
     -12.02559       5.64300
     -12.02159       5.75300
     -12.01759       5.86700
     -12.01359       5.98300
     -12.00959       6.11300
     -12.00559       6.25700
     -12.00159       6.40800
     -11.99759       6.55900
     -11.99359       6.81300
     -11.98959       7.25600
     -11.98559       7.66300
     -11.98159       8.10800
     -11.97759       8.63700
     -11.97359       9.26900
     -11.96959      10.68000
     -11.96559      14.06000
     -11.96159       9.92400
     -11.95759      10.42000
     -11.95359       8.61900
     -11.94959       8.90800
     -11.94559       8.80000
     -11.94159       7.96100
     -11.93759       7.78300
     -11.93359       7.61400
     -11.92959       7.45900
     -11.92559       6.97800
     -11.92159       7.04200
     -11.91759       7.05900
     -11.91359       7.28600
     -11.90959       7.04900
     -11.90559       6.84600
     -11.90159       6.64300
     -11.89759       6.37100
     -11.89359       6.54100
     -11.88959       7.02500
     -11.88559       6.35100
     -11.88159       6.27000
     -11.87759       3.12100
     -11.87359       2.34300
     -11.86959       2.36400
     -11.86559       2.38600
     -11.86159       2.40800
     -11.85759       2.43000
     -11.85359       2.45300
     -11.84959       2.54000
     -11.84559       2.59400
     -11.84159       2.64500
     -11.83759       2.69300
     -11.83359       2.73600
     -11.82959       2.77900
     -11.82559       2.82300
     -11.82159       2.86600
     -11.81759       2.90800
     -11.81359       2.95100
     -11.80959       2.99300
     -11.80559       3.03600
     -11.80159       3.07800
     -11.79759       3.12300
     -11.79359       3.16900
     -11.78959       3.21400
     -11.78559       3.26000
     -11.78159       3.39600
     -11.77759       3.53600
     -11.77359       3.64600
     -11.76959       3.75900
     -11.76559       3.86600
     -11.76159       3.97400
     -11.75759       4.08600
     -11.75359       4.20200
     -11.74959       4.31800
     -11.74559       4.43500
     -11.74159       4.57800
     -11.73759       4.72600
     -11.73359       4.87400
     -11.72959       5.02200
     -11.72559       5.21400
     -11.72159       5.81800
     -11.71759       6.40500
     -11.71359       7.12100
     -11.70959       8.35000
     -11.70559      12.86000
     -11.70159       8.95700
     -11.69759       7.58700
     -11.69359       5.98200
     -11.68959       6.24100
     -11.68559       6.20900
     -11.68159       5.93400
     -11.67759       5.67800
     -11.67359       5.65800
     -11.66959       5.46100
     -11.66559       5.26400
     -11.66159       4.71700
     -11.65759       4.68000
     -11.65359       4.64400
     -11.64959       4.58700
     -11.64559       4.50700
     -11.64159       4.75600
     -11.63759       4.54300
     -11.63359       4.32900
     -11.62959       4.11600
     -11.62559       3.98500
     -11.62159       4.02900
     -11.61759       4.40700
     -11.61359       3.85600
     -11.60959       3.70900
     -11.60559       0.79980
     -11.60159       0.00000
     -11.59759       0.00000
     -11.59359       0.00000
     -11.58959       0.00000
     -11.58559       0.00000
     -11.58159       0.00000
     -11.57759       0.00000
     -11.57359       0.00000
     -11.56959       0.00000
     -11.56559       0.00000
     -11.56159       0.00000
     -11.55759       0.00000
     -11.55359       0.00000
     -11.54959       0.00000
     -11.54559       0.00000
     -11.54159       0.00000
     -11.53759       0.00000
     -11.53359       0.00000
     -11.52959       0.00000
     -11.52559       0.00000
     -11.52159       0.00000
     -11.51759       0.00000
     -11.51359       0.00000
     -11.50959       0.00000
     -11.50559       0.00000
     -11.50159       0.00000
     -11.49759       0.00000
     -11.49359       0.00000
     -11.48959       0.00000
     -11.48559       0.00000
     -11.48159       0.00000
     -11.47759       0.00000
     -11.47359       0.00000
     -11.46959       0.00000
     -11.46559       0.00000
     -11.46159       0.00000
     -11.45759       0.00000
     -11.45359       0.00000
     -11.44959       0.00000
     -11.44559       0.00000
     -11.44159       0.00000
     -11.43759       0.00000
     -11.43359       0.00000
     -11.42959       0.00000
     -11.42559       0.00000
     -11.42159       0.00000
     -11.41759       0.00000
     -11.41359       0.00000
     -11.40959       0.00000
     -11.40559       0.00000
     -11.40159       0.00000
     -11.39759       0.00000
     -11.39359       0.00000
     -11.38959       0.00000
     -11.38559       0.00000
     -11.38159       0.00000
     -11.37759       0.00000
     -11.37359       0.00000
     -11.36959       0.00000
     -11.36559       0.00000
     -11.36159       0.00000
     -11.35759       0.00000
     -11.35359       0.00000
     -11.34959       0.00000
     -11.34559       0.00000
     -11.34159       0.00000
     -11.33759       0.00000
     -11.33359       0.00000
     -11.32959       0.00000
     -11.32559       0.00000
     -11.32159       0.00000
     -11.31759       0.00000
     -11.31359       0.00000
     -11.30959       0.00000
     -11.30559       0.00000
     -11.30159       0.00000
     -11.29759       0.00000
     -11.29359       0.00000
     -11.28959       0.00000
     -11.28559       0.00000
     -11.28159       0.00000
     -11.27759       0.00000
     -11.27359       0.00000
     -11.26959       0.00000
     -11.26559       0.00000
     -11.26159       0.00000
     -11.25759       0.00000
     -11.25359       0.00000
     -11.24959       0.00000
     -11.24559       0.00000
     -11.24159       0.00000
     -11.23759       0.00000
     -11.23359       0.00000
     -11.22959       0.00000
     -11.22559       0.00000
     -11.22159       0.00000
     -11.21759       0.00000
     -11.21359       0.00000
     -11.20959       0.00000
     -11.20559       0.00000
     -11.20159       0.00000
     -11.19759       0.00000
     -11.19359       0.00000
     -11.18959       0.00000
     -11.18559       0.00000
     -11.18159       0.00000
     -11.17759       0.00000
     -11.17359       0.00000
     -11.16959       0.00000
     -11.16559       0.00000
     -11.16159       0.00000
     -11.15759       0.00000
     -11.15359       0.00000
     -11.14959       0.00000
     -11.14559       0.00000
     -11.14159       0.00000
     -11.13759       0.00000
     -11.13359       0.00000
     -11.12959       0.00000
     -11.12559       0.00000
     -11.12159       0.00000
     -11.11759       0.00000
     -11.11359       0.00000
     -11.10959       0.00000
     -11.10559       0.00000
     -11.10159       0.00000
     -11.09759       0.00000
     -11.09359       0.00000
     -11.08959       0.00000
     -11.08559       0.00000
     -11.08159       0.00000
     -11.07759       0.00000
     -11.07359       0.00000
     -11.06959       0.00000
     -11.06559       0.00000
     -11.06159       0.00000
     -11.05759       0.00000
     -11.05359       0.00000
     -11.04959       0.00000
     -11.04559       0.00000
     -11.04159       0.00000
     -11.03759       0.00000
     -11.03359       0.00000
     -11.02959       0.00000
     -11.02559       0.00000
     -11.02159       0.00000
     -11.01759       0.00000
     -11.01359       0.00000
     -11.00959       0.00000
     -11.00559       0.00000
     -11.00159       0.00000
     -10.99759       0.00000
     -10.99359       0.00000
     -10.98959       0.00000
     -10.98559       0.00000
     -10.98159       0.00000
     -10.97759       0.00000
     -10.97359       0.00000
     -10.96959       0.00000
     -10.96559       0.00000
     -10.96159       0.00000
     -10.95759       0.00000
     -10.95359       0.00000
     -10.94959       0.00000
     -10.94559       0.00000
     -10.94159       0.00000
     -10.93759       0.00000
     -10.93359       0.00000
     -10.92959       0.00000
     -10.92559       0.00000
     -10.92159       0.00000
     -10.91759       0.00000
     -10.91359       0.00000
     -10.90959       0.00000
     -10.90559       0.00000
     -10.90159       0.00000
     -10.89759       0.00000
     -10.89359       0.00000
     -10.88959       0.00000
     -10.88559       0.00000
     -10.88159       0.00000
     -10.87759       0.00000
     -10.87359       0.00000
     -10.86959       0.00000
     -10.86559       0.00000
     -10.86159       0.00000
     -10.85759       0.00000
     -10.85359       0.00000
     -10.84959       0.00000
     -10.84559       0.00000
     -10.84159       0.00000
     -10.83759       0.00000
     -10.83359       0.00000
     -10.82959       0.00000
     -10.82559       0.00000
     -10.82159       0.00000
     -10.81759       0.00000
     -10.81359       0.00000
     -10.80959       0.00000
     -10.80559       0.00000
     -10.80159       0.00000
     -10.79759       0.00000
     -10.79359       0.00000
     -10.78959       0.00000
     -10.78559       0.00000
     -10.78159       0.00000
     -10.77759       0.00000
     -10.77359       0.00000
     -10.76859       0.00000
     -10.76459       0.00000
     -10.76059       0.00000
     -10.75659       0.00000
     -10.75259       0.00000
     -10.74859       0.00000
     -10.74459       0.00000
     -10.74059       0.00000
     -10.73659       0.00000
     -10.73259       0.00000
     -10.72859       0.00000
     -10.72459       0.00000
     -10.72059       0.00000
     -10.71659       0.00000
     -10.71259       0.00000
     -10.70859       0.00000
     -10.70459       0.00000
     -10.70059       0.00000
     -10.69659       0.00000
     -10.69259       0.00000
     -10.68859       0.00000
     -10.68459       0.00000
     -10.68059       0.00000
     -10.67659       0.00000
     -10.67259       0.00000
     -10.66859       0.00000
     -10.66459       0.00000
     -10.66059       0.00000
     -10.65659       0.00000
     -10.65259       0.00000
     -10.64859       0.00000
     -10.64459       0.00000
     -10.64059       0.00000
     -10.63659       0.00000
     -10.63259       0.00000
     -10.62859       0.00000
     -10.62459       0.00000
     -10.62059       0.00000
     -10.61659       0.00000
     -10.61259       0.00000
     -10.60859       0.00000
     -10.60459       0.00000
     -10.60059       0.00000
     -10.59659       0.00000
     -10.59259       0.00000
     -10.58859       0.00000
     -10.58459       0.00000
     -10.58059       0.00000
     -10.57659       0.00000
     -10.57259       0.00000
     -10.56859       0.00000
     -10.56459       0.00000
     -10.56059       0.00000
     -10.55659       0.00000
     -10.55259       0.00000
     -10.54859       0.00000
     -10.54459       0.00000
     -10.54059       0.00000
     -10.53659       0.00000
     -10.53259       0.00000
     -10.52859       0.00000
     -10.52459       0.00000
     -10.52059       0.00000
